Format: scalepack_merge
Miller array info: /reg/data/ana03/scratch/zhensu/Experiment/ICH/20201225/data/G150T-1/datadir/phenix_merge_stats_2021_01_06_14_17_11_234310/exp_nosym_aniso.hkl:I,SIGI
Observation type: xray.intensity
Type of data: double, size=311974
Type of sigmas: double, size=311974
Number of Miller indices: 311974
Anomalous flag: False
Unit cell: (56.295, 59.716, 69.505, 90, 110.88, 90)
Space group: I 1 2 1 (No. 5)

                     ----------Merging statistics----------                    

Resolution: 26.30 - 1.40
Observations: 155999
Unique reflections: 42326
Redundancy: 3.7
Completeness: 99.84%
Mean intensity: 7.1
Mean I/sigma(I): 5.1
R-merge: 0.021
R-meas:  0.024
R-pim:   0.012

Redundancies (non-anomalous):
  1 : 1355
  2 : 4007
  3 : 1226
  4 : 35738

  Statistics by resolution bin:
 d_max  d_min   #obs  #uniq   mult.  %comp       <I>  <I/sI>    r_mrg   r_meas    r_pim   cc1/2   cc_ano
 26.30   3.45  11085   2909    3.81 100.00       7.1     5.2    0.036    0.041    0.021   0.882  -0.256
  3.45   2.74  10913   2840    3.84 100.00       7.1     5.2    0.031    0.037    0.019   0.896  -0.190
  2.74   2.39  10831   2836    3.82 100.00       7.1     5.2    0.023    0.027    0.014   0.902  -0.158
  2.39   2.17  10736   2837    3.78 100.00       7.1     5.1    0.022    0.025    0.013   0.903  -0.090
  2.17   2.02  10591   2823    3.75 100.00       7.1     5.1    0.028    0.032    0.017   0.767  -0.181
  2.02   1.90  10539   2838    3.71 100.00       7.1     5.1    0.024    0.028    0.014   0.727  -0.213
  1.90   1.80  10332   2797    3.69 100.00       7.0     5.1    0.019    0.022    0.011   0.734  -0.151
  1.80   1.73  10310   2810    3.67  99.93       7.0     5.0    0.016    0.019    0.010   0.655  -0.049
  1.73   1.66  10296   2818    3.65  99.89       7.0     5.0    0.015    0.017    0.009   0.650  -0.038
  1.66   1.60  10223   2827    3.62  99.82       7.0     5.0    0.014    0.017    0.009   0.537  -0.056
  1.60   1.55  10125   2792    3.63  99.75       7.0     5.0    0.015    0.017    0.009   0.516  -0.067
  1.55   1.51  10035   2793    3.59  99.64       7.0     5.0    0.014    0.017    0.009   0.467  -0.010
  1.51   1.47  10080   2817    3.58  99.58       7.0     5.0    0.016    0.019    0.010   0.341  -0.017
  1.47   1.43   9999   2799    3.57  99.50       7.0     5.0    0.015    0.017    0.009   0.338  -0.080
  1.43   1.40   9904   2790    3.55  99.43       7.0     4.9    0.016    0.019    0.010   0.210  -0.052
 26.30   1.40 155999  42326    3.69  99.84       7.1     5.1    0.021    0.024    0.012   0.844  -0.164

References:
  Diederichs K & Karplus PA (1997) Nature Structural Biology 4:269-275
    (with erratum in: Nat Struct Biol 1997 Jul;4(7):592)
  Weiss MS (2001) J Appl Cryst 34:130-135.
  Karplus PA & Diederichs K (2012) Science 336:1030-3.

