Format: scalepack_merge
Miller array info: /reg/data/ana03/scratch/zhensu/Experiment/ICH/20201225/data/WT-2/datadir/phenix_merge_stats_2021_01_06_14_12_31_927260/exp_nosym_aniso.hkl:I,SIGI
Observation type: xray.intensity
Type of data: double, size=303583
Type of sigmas: double, size=303583
Number of Miller indices: 303583
Anomalous flag: False
Unit cell: (57.297, 58.215, 69.052, 90, 112.83, 90)
Space group: P 1 21 1 (No. 4)

                     ----------Merging statistics----------                    

Resolution: 29.73 - 1.40
Observations: 303551
Unique reflections: 82492
Redundancy: 3.7
Completeness: 100.00%
Mean intensity: 9.6
Mean I/sigma(I): 5.9
R-merge: 0.028
R-meas:  0.033
R-pim:   0.017

Redundancies (non-anomalous):
  1 : 2300
  2 : 8142
  3 : 3233
  4 : 68817

  Statistics by resolution bin:
 d_max  d_min   #obs  #uniq   mult.  %comp       <I>  <I/sI>    r_mrg   r_meas    r_pim   cc1/2   cc_ano
 29.74   3.45  21523   5645    3.81 100.00       9.5     6.0    0.049    0.057    0.029   0.784  -0.607
  3.45   2.74  21242   5527    3.84 100.00       9.6     6.1    0.029    0.034    0.017   0.876  -0.330
  2.74   2.39  21137   5534    3.82 100.00       9.6     6.0    0.028    0.032    0.017   0.806  -0.504
  2.39   2.17  20840   5515    3.78 100.00       9.6     6.0    0.031    0.037    0.019   0.725  -0.505
  2.17   2.02  20577   5492    3.75 100.00       9.6     6.0    0.032    0.037    0.019   0.651  -0.382
  2.02   1.90  20376   5485    3.71 100.00       9.6     5.9    0.029    0.034    0.017   0.567  -0.389
  1.90   1.80  20242   5483    3.69 100.00       9.6     5.9    0.026    0.030    0.016   0.494  -0.425
  1.80   1.73  20031   5458    3.67 100.00       9.6     5.9    0.025    0.029    0.015   0.367  -0.441
  1.73   1.66  20077   5511    3.64 100.00       9.6     5.9    0.024    0.028    0.014   0.319  -0.445
  1.66   1.60  19802   5458    3.63 100.00       9.6     5.8    0.024    0.028    0.014   0.222  -0.479
  1.60   1.55  19770   5488    3.60 100.00       9.6     5.8    0.025    0.029    0.015   0.113  -0.421
  1.55   1.51  19573   5454    3.59 100.00       9.6     5.8    0.026    0.030    0.016   0.021  -0.425
  1.51   1.47  19437   5460    3.56 100.00       9.6     5.8    0.026    0.030    0.015   0.014  -0.437
  1.47   1.43  19438   5466    3.56 100.00       9.6     5.8    0.025    0.030    0.015  -0.009  -0.459
  1.43   1.40  19486   5516    3.53 100.00       9.6     5.8    0.025    0.029    0.015   0.008  -0.469
 29.73   1.40 303551  82492    3.68 100.00       9.6     5.9    0.028    0.033    0.017   0.676  -0.468

References:
  Diederichs K & Karplus PA (1997) Nature Structural Biology 4:269-275
    (with erratum in: Nat Struct Biol 1997 Jul;4(7):592)
  Weiss MS (2001) J Appl Cryst 34:130-135.
  Karplus PA & Diederichs K (2012) Science 336:1030-3.

