Format: scalepack_merge
Miller array info: /reg/data/ana03/scratch/zhensu/Experiment/ICH/20201225/data/WT-2/datadir/phenix_merge_stats_2021_01_06_14_12_10_612797/exp_nosym_aniso.hkl:I,SIGI
Observation type: xray.intensity
Type of data: double, size=303583
Type of sigmas: double, size=303583
Number of Miller indices: 303583
Anomalous flag: False
Unit cell: (57.297, 58.215, 69.052, 90, 112.83, 90)
Space group: P 1 21 1 (No. 4)

                     ----------Merging statistics----------                    

Resolution: 29.73 - 1.40
Observations: 303551
Unique reflections: 82492
Redundancy: 3.7
Completeness: 100.00%
Mean intensity: 16.1
Mean I/sigma(I): 7.3
R-merge: 0.132
R-meas:  0.154
R-pim:   0.078

Redundancies (non-anomalous):
  1 : 2300
  2 : 8142
  3 : 3233
  4 : 68817

  Statistics by resolution bin:
 d_max  d_min   #obs  #uniq   mult.  %comp       <I>  <I/sI>    r_mrg   r_meas    r_pim   cc1/2   cc_ano
 29.74   3.45  21523   5645    3.81 100.00      15.5     6.5    0.204    0.237    0.119  -0.078  -0.869
  3.45   2.74  21242   5527    3.84 100.00      15.2     5.9    0.249    0.289    0.146  -0.184  -0.896
  2.74   2.39  21137   5534    3.82 100.00      15.7     6.7    0.193    0.224    0.114  -0.191  -0.904
  2.39   2.17  20840   5515    3.78 100.00      15.8     6.9    0.183    0.213    0.108  -0.258  -0.903
  2.17   2.02  20577   5492    3.75 100.00      15.9     7.1    0.170    0.197    0.100  -0.289  -0.901
  2.02   1.90  20376   5485    3.71 100.00      16.1     7.5    0.139    0.162    0.082  -0.209  -0.909
  1.90   1.80  20242   5483    3.69 100.00      16.3     7.7    0.114    0.132    0.067  -0.279  -0.907
  1.80   1.73  20031   5458    3.67 100.00      16.4     7.7    0.099    0.115    0.059  -0.363  -0.911
  1.73   1.66  20077   5511    3.64 100.00      16.4     7.7    0.091    0.106    0.054  -0.392  -0.907
  1.66   1.60  19802   5458    3.63 100.00      16.4     7.6    0.088    0.103    0.052  -0.406  -0.907
  1.60   1.55  19770   5488    3.60 100.00      16.4     7.6    0.087    0.102    0.052  -0.407  -0.899
  1.55   1.51  19573   5454    3.59 100.00      16.4     7.6    0.087    0.101    0.052  -0.401  -0.889
  1.51   1.47  19437   5460    3.56 100.00      16.4     7.6    0.085    0.099    0.051  -0.377  -0.897
  1.47   1.43  19438   5466    3.56 100.00      16.4     7.6    0.084    0.098    0.050  -0.403  -0.894
  1.43   1.40  19486   5516    3.53 100.00      16.4     7.5    0.083    0.097    0.050  -0.431  -0.901
 29.73   1.40 303551  82492    3.68 100.00      16.1     7.3    0.132    0.154    0.078  -0.219  -0.896

References:
  Diederichs K & Karplus PA (1997) Nature Structural Biology 4:269-275
    (with erratum in: Nat Struct Biol 1997 Jul;4(7):592)
  Weiss MS (2001) J Appl Cryst 34:130-135.
  Karplus PA & Diederichs K (2012) Science 336:1030-3.

