Format: scalepack_merge
Miller array info: /reg/data/ana03/scratch/zhensu/Experiment/ICH/20201225/data/G150T-3/datadir/phenix_merge_stats_2021_01_06_14_19_58_086240/exp_nosym_aniso.hkl:I,SIGI
Observation type: xray.intensity
Type of data: double, size=302825
Type of sigmas: double, size=302825
Number of Miller indices: 302825
Anomalous flag: False
Unit cell: (56.295, 59.716, 69.505, 90, 110.88, 90)
Space group: I 1 2 1 (No. 5)

                     ----------Merging statistics----------                    

Resolution: 26.30 - 1.40
Observations: 151426
Unique reflections: 41960
Redundancy: 3.6
Completeness: 98.97%
Mean intensity: 12.4
Mean I/sigma(I): 6.6
R-merge: 0.028
R-meas:  0.033
R-pim:   0.017

Redundancies (non-anomalous):
  1 : 1160
  2 : 3792
  3 : 5350
  4 : 31658

  Statistics by resolution bin:
 d_max  d_min   #obs  #uniq   mult.  %comp       <I>  <I/sI>    r_mrg   r_meas    r_pim   cc1/2   cc_ano
 26.30   3.45  10964   2909    3.77 100.00      12.6     6.8    0.060    0.070    0.036   0.873  -0.162
  3.45   2.74  10633   2838    3.75  99.93      12.7     6.8    0.036    0.042    0.022   0.927   0.076
  2.74   2.39  10492   2831    3.71  99.82      12.5     6.8    0.027    0.032    0.016   0.934  -0.042
  2.39   2.17  10422   2827    3.69  99.65      12.5     6.7    0.027    0.031    0.016   0.920  -0.127
  2.17   2.02  10228   2804    3.65  99.33      12.5     6.7    0.033    0.038    0.019   0.849  -0.195
  2.02   1.90  10219   2817    3.63  99.26      12.4     6.7    0.029    0.033    0.017   0.838  -0.143
  1.90   1.80   9994   2771    3.61  99.07      12.4     6.6    0.025    0.029    0.015   0.805  -0.146
  1.80   1.73   9998   2785    3.59  99.04      12.4     6.6    0.023    0.027    0.014   0.724  -0.152
  1.73   1.66   9967   2791    3.57  98.94      12.4     6.6    0.022    0.026    0.013   0.649  -0.097
  1.66   1.60   9943   2789    3.57  98.48      12.4     6.6    0.022    0.026    0.013   0.603  -0.141
  1.60   1.55   9760   2761    3.53  98.64      12.4     6.6    0.022    0.025    0.013   0.587  -0.155
  1.55   1.51   9745   2758    3.53  98.39      12.4     6.6    0.022    0.026    0.014   0.531  -0.197
  1.51   1.47   9765   2775    3.52  98.09      12.4     6.5    0.025    0.029    0.015   0.413  -0.129
  1.47   1.43   9658   2756    3.50  97.97      12.4     6.5    0.024    0.028    0.014   0.410  -0.155
  1.43   1.40   9638   2748    3.51  97.93      12.4     6.5    0.023    0.027    0.014   0.302  -0.190
 26.30   1.40 151426  41960    3.61  98.97      12.4     6.6    0.028    0.033    0.017   0.863  -0.098

References:
  Diederichs K & Karplus PA (1997) Nature Structural Biology 4:269-275
    (with erratum in: Nat Struct Biol 1997 Jul;4(7):592)
  Weiss MS (2001) J Appl Cryst 34:130-135.
  Karplus PA & Diederichs K (2012) Science 336:1030-3.

