Format: scalepack_merge
Miller array info: /reg/data/ana03/scratch/zhensu/Experiment/ICH/20201225/data/G150T-2/datadir/phenix_merge_stats_2021_01_06_14_18_19_017320/exp_nosym_aniso.hkl:I,SIGI
Observation type: xray.intensity
Type of data: double, size=315433
Type of sigmas: double, size=315433
Number of Miller indices: 315433
Anomalous flag: False
Unit cell: (56.295, 59.716, 69.505, 90, 110.88, 90)
Space group: I 1 2 1 (No. 5)

                     ----------Merging statistics----------                    

Resolution: 29.20 - 1.40
Observations: 157733
Unique reflections: 42396
Redundancy: 3.7
Completeness: 100.00%
Mean intensity: 26.1
Mean I/sigma(I): 9.2
R-merge: 0.090
R-meas:  0.105
R-pim:   0.054

Redundancies (non-anomalous):
  1 : 56
  2 : 3289
  3 : 5105
  4 : 33946

  Statistics by resolution bin:
 d_max  d_min   #obs  #uniq   mult.  %comp       <I>  <I/sI>    r_mrg   r_meas    r_pim   cc1/2   cc_ano
 29.20   3.45  11084   2908    3.81 100.00      26.0     8.9    0.109    0.126    0.064   0.381  -0.135
  3.45   2.74  10929   2837    3.85 100.00      25.5     7.9    0.154    0.178    0.091   0.331  -0.142
  2.74   2.39  10903   2840    3.84 100.00      25.8     8.6    0.124    0.144    0.073   0.268  -0.060
  2.39   2.17  10833   2838    3.82 100.00      25.8     8.5    0.124    0.145    0.074   0.179  -0.040
  2.17   2.02  10706   2820    3.80 100.00      25.9     8.6    0.122    0.142    0.073   0.154   0.022
  2.02   1.90  10696   2840    3.77 100.00      26.0     9.1    0.100    0.117    0.060   0.106   0.008
  1.90   1.80  10502   2797    3.75 100.00      26.2     9.5    0.082    0.096    0.050   0.085   0.038
  1.80   1.73  10439   2813    3.71 100.00      26.2     9.6    0.072    0.084    0.044   0.075   0.052
  1.73   1.66  10414   2821    3.69 100.00      26.3     9.6    0.067    0.079    0.041   0.062   0.064
  1.66   1.60  10405   2831    3.68 100.00      26.3     9.6    0.065    0.076    0.040   0.069   0.124
  1.60   1.55  10229   2799    3.65 100.00      26.3     9.6    0.064    0.075    0.040   0.046   0.108
  1.55   1.51  10216   2804    3.64 100.00      26.3     9.6    0.065    0.076    0.040   0.016   0.120
  1.51   1.47  10208   2829    3.61 100.00      26.3     9.6    0.064    0.076    0.040   0.012   0.138
  1.47   1.43  10097   2813    3.59 100.00      26.3     9.5    0.064    0.076    0.041   0.006   0.143
  1.43   1.40  10072   2806    3.59 100.00      26.3     9.5    0.062    0.073    0.039   0.035   0.164
 29.20   1.40 157733  42396    3.72 100.00      26.1     9.2    0.090    0.105    0.054   0.200  -0.033

References:
  Diederichs K & Karplus PA (1997) Nature Structural Biology 4:269-275
    (with erratum in: Nat Struct Biol 1997 Jul;4(7):592)
  Weiss MS (2001) J Appl Cryst 34:130-135.
  Karplus PA & Diederichs K (2012) Science 336:1030-3.

