Format: scalepack_merge
Miller array info: /reg/data/ana03/scratch/zhensu/Experiment/ICH/20201225/data/G150A-3/datadir/phenix_merge_stats_2021_01_06_14_16_01_028993/exp_nosym_aniso.hkl:I,SIGI
Observation type: xray.intensity
Type of data: double, size=296443
Type of sigmas: double, size=296443
Number of Miller indices: 296443
Anomalous flag: False
Unit cell: (57.318, 58.245, 69.095, 90, 112.74, 90)
Space group: P 1 21 1 (No. 4)

                     ----------Merging statistics----------                    

Resolution: 29.77 - 1.40
Observations: 296416
Unique reflections: 82661
Redundancy: 3.6
Completeness: 100.00%
Mean intensity: 10.9
Mean I/sigma(I): 6.2
R-merge: 0.025
R-meas:  0.030
R-pim:   0.015

Redundancies (non-anomalous):
  1 : 3054
  2 : 10900
  3 : 3266
  4 : 65441

  Statistics by resolution bin:
 d_max  d_min   #obs  #uniq   mult.  %comp       <I>  <I/sI>    r_mrg   r_meas    r_pim   cc1/2   cc_ano
 29.78   3.45  21494   5658    3.80 100.00      10.8     6.4    0.058    0.067    0.034   0.739  -0.213
  3.45   2.74  20869   5538    3.77 100.00      10.9     6.4    0.039    0.046    0.023   0.807  -0.240
  2.74   2.39  20624   5545    3.72 100.00      10.9     6.3    0.029    0.034    0.017   0.806  -0.252
  2.39   2.17  20352   5526    3.68 100.00      10.9     6.3    0.030    0.035    0.018   0.749  -0.211
  2.17   2.02  20045   5500    3.64 100.00      10.9     6.3    0.028    0.033    0.017   0.700  -0.053
  2.02   1.90  19877   5500    3.61 100.00      10.9     6.2    0.025    0.029    0.015   0.647  -0.130
  1.90   1.80  19738   5498    3.59 100.00      10.9     6.2    0.020    0.024    0.012   0.617   0.010
  1.80   1.73  19538   5477    3.57 100.00      10.9     6.2    0.018    0.021    0.011   0.518   0.027
  1.73   1.66  19577   5522    3.55 100.00      10.9     6.1    0.018    0.021    0.011   0.422   0.001
  1.66   1.60  19228   5465    3.52 100.00      10.9     6.1    0.017    0.020    0.010   0.320  -0.025
  1.60   1.55  19278   5503    3.50 100.00      10.9     6.1    0.018    0.021    0.011   0.279   0.007
  1.55   1.51  19034   5464    3.48 100.00      10.9     6.1    0.018    0.021    0.011   0.204   0.027
  1.51   1.47  18996   5482    3.47 100.00      10.9     6.1    0.018    0.021    0.011   0.197  -0.007
  1.47   1.43  18793   5464    3.44 100.00      10.9     6.0    0.018    0.021    0.011   0.142   0.004
  1.43   1.40  18973   5519    3.44 100.00      10.9     6.0    0.019    0.022    0.012   0.091  -0.025
 29.77   1.40 296416  82661    3.59 100.00      10.9     6.2    0.025    0.030    0.015   0.712  -0.136

References:
  Diederichs K & Karplus PA (1997) Nature Structural Biology 4:269-275
    (with erratum in: Nat Struct Biol 1997 Jul;4(7):592)
  Weiss MS (2001) J Appl Cryst 34:130-135.
  Karplus PA & Diederichs K (2012) Science 336:1030-3.

