Format: scalepack_merge
Miller array info: /reg/data/ana03/scratch/zhensu/Experiment/ICH/20201225/data/G150A-3/datadir/phenix_merge_stats_2021_01_06_14_16_25_912672/exp_nosym_aniso.hkl:I,SIGI
Observation type: xray.intensity
Type of data: double, size=296445
Type of sigmas: double, size=296445
Number of Miller indices: 296445
Anomalous flag: False
Unit cell: (57.318, 58.245, 69.095, 90, 112.74, 90)
Space group: P 1 21 1 (No. 4)

                     ----------Merging statistics----------                    

Resolution: 29.77 - 1.40
Observations: 296418
Unique reflections: 82661
Redundancy: 3.6
Completeness: 100.00%
Mean intensity: 10.6
Mean I/sigma(I): 6.1
R-merge: 0.027
R-meas:  0.031
R-pim:   0.016

Redundancies (non-anomalous):
  1 : 3053
  2 : 10901
  3 : 3265
  4 : 65442

  Statistics by resolution bin:
 d_max  d_min   #obs  #uniq   mult.  %comp       <I>  <I/sI>    r_mrg   r_meas    r_pim   cc1/2   cc_ano
 29.78   3.45  21494   5658    3.80 100.00      10.5     6.3    0.065    0.076    0.039   0.729  -0.460
  3.45   2.74  20869   5538    3.77 100.00      10.6     6.3    0.042    0.049    0.025   0.810  -0.325
  2.74   2.39  20624   5545    3.72 100.00      10.6     6.2    0.024    0.028    0.015   0.850  -0.229
  2.39   2.17  20352   5526    3.68 100.00      10.6     6.2    0.028    0.032    0.017   0.780  -0.224
  2.17   2.02  20045   5500    3.64 100.00      10.6     6.2    0.026    0.031    0.016   0.752  -0.067
  2.02   1.90  19877   5500    3.61 100.00      10.6     6.1    0.023    0.027    0.014   0.714  -0.195
  1.90   1.80  19738   5498    3.59 100.00      10.6     6.1    0.021    0.025    0.013   0.602  -0.174
  1.80   1.73  19538   5477    3.57 100.00      10.6     6.1    0.021    0.024    0.012   0.430  -0.178
  1.73   1.66  19577   5522    3.55 100.00      10.6     6.1    0.020    0.024    0.012   0.340  -0.173
  1.66   1.60  19228   5465    3.52 100.00      10.6     6.0    0.020    0.024    0.012   0.246  -0.240
  1.60   1.55  19278   5503    3.50 100.00      10.6     6.0    0.021    0.024    0.013   0.194  -0.208
  1.55   1.51  19034   5464    3.48 100.00      10.6     6.0    0.021    0.025    0.013   0.136  -0.218
  1.51   1.47  18996   5482    3.47 100.00      10.6     6.0    0.021    0.024    0.013   0.135  -0.248
  1.47   1.43  18793   5464    3.44 100.00      10.6     6.0    0.020    0.023    0.012   0.064  -0.229
  1.43   1.40  18975   5519    3.44 100.00      10.6     6.0    0.020    0.023    0.012  -0.007  -0.264
 29.77   1.40 296418  82661    3.59 100.00      10.6     6.1    0.027    0.031    0.016   0.715  -0.288

References:
  Diederichs K & Karplus PA (1997) Nature Structural Biology 4:269-275
    (with erratum in: Nat Struct Biol 1997 Jul;4(7):592)
  Weiss MS (2001) J Appl Cryst 34:130-135.
  Karplus PA & Diederichs K (2012) Science 336:1030-3.

