Format: scalepack_merge
Miller array info: /reg/data/ana03/scratch/zhensu/Experiment/ICH/20201225/data/G150T-1/datadir/phenix_merge_stats_2021_01_06_14_17_25_858904/exp_nosym_aniso.hkl:I,SIGI
Observation type: xray.intensity
Type of data: double, size=311999
Type of sigmas: double, size=311999
Number of Miller indices: 311999
Anomalous flag: False
Unit cell: (56.295, 59.716, 69.505, 90, 110.88, 90)
Space group: I 1 2 1 (No. 5)

                     ----------Merging statistics----------                    

Resolution: 26.30 - 1.40
Observations: 156013
Unique reflections: 42326
Redundancy: 3.7
Completeness: 99.84%
Mean intensity: 10.6
Mean I/sigma(I): 6.2
R-merge: 0.020
R-meas:  0.023
R-pim:   0.012

Redundancies (non-anomalous):
  1 : 1355
  2 : 4007
  3 : 1212
  4 : 35752

  Statistics by resolution bin:
 d_max  d_min   #obs  #uniq   mult.  %comp       <I>  <I/sI>    r_mrg   r_meas    r_pim   cc1/2   cc_ano
 26.30   3.45  11086   2909    3.81 100.00      10.7     6.3    0.035    0.041    0.021   0.829  -0.490
  3.45   2.74  10913   2840    3.84 100.00      10.7     6.4    0.028    0.032    0.016   0.875  -0.348
  2.74   2.39  10831   2836    3.82 100.00      10.7     6.3    0.019    0.022    0.011   0.895  -0.201
  2.39   2.17  10736   2837    3.78 100.00      10.7     6.3    0.019    0.022    0.011   0.894  -0.166
  2.17   2.02  10591   2823    3.75 100.00      10.6     6.3    0.024    0.027    0.014   0.768  -0.201
  2.02   1.90  10539   2838    3.71 100.00      10.6     6.2    0.021    0.025    0.013   0.724  -0.244
  1.90   1.80  10332   2797    3.69 100.00      10.6     6.2    0.018    0.022    0.011   0.708  -0.214
  1.80   1.73  10310   2810    3.67  99.93      10.6     6.2    0.017    0.019    0.010   0.610  -0.128
  1.73   1.66  10296   2818    3.65  99.89      10.6     6.2    0.016    0.018    0.009   0.595  -0.122
  1.66   1.60  10223   2827    3.62  99.82      10.6     6.1    0.015    0.018    0.009   0.481  -0.135
  1.60   1.55  10125   2792    3.63  99.75      10.6     6.1    0.016    0.019    0.010   0.451  -0.127
  1.55   1.51  10035   2793    3.59  99.64      10.6     6.1    0.016    0.018    0.009   0.409  -0.067
  1.51   1.47  10080   2817    3.58  99.58      10.6     6.1    0.018    0.021    0.011   0.301  -0.047
  1.47   1.43   9999   2799    3.57  99.50      10.6     6.1    0.017    0.020    0.010   0.291  -0.110
  1.43   1.40   9917   2790    3.55  99.43      10.6     6.1    0.017    0.019    0.010   0.213  -0.064
 26.30   1.40 156013  42326    3.69  99.84      10.6     6.2    0.020    0.023    0.012   0.797  -0.251

References:
  Diederichs K & Karplus PA (1997) Nature Structural Biology 4:269-275
    (with erratum in: Nat Struct Biol 1997 Jul;4(7):592)
  Weiss MS (2001) J Appl Cryst 34:130-135.
  Karplus PA & Diederichs K (2012) Science 336:1030-3.

