Format: scalepack_merge
Miller array info: /reg/data/ana03/scratch/zhensu/Experiment/ICH/20201225/data/WT-3/datadir/phenix_merge_stats_2021_01_06_14_13_22_845926/exp_nosym_aniso.hkl:I,SIGI
Observation type: xray.intensity
Type of data: double, size=299098
Type of sigmas: double, size=299098
Number of Miller indices: 299098
Anomalous flag: False
Unit cell: (57.31, 58.215, 69.03, 90, 112.81, 90)
Space group: P 1 21 1 (No. 4)

                     ----------Merging statistics----------                    

Resolution: 29.73 - 1.40
Observations: 299058
Unique reflections: 81915
Redundancy: 3.7
Completeness: 99.30%
Mean intensity: 24.2
Mean I/sigma(I): 9.3
R-merge: 0.021
R-meas:  0.024
R-pim:   0.012

Redundancies (non-anomalous):
  1 : 2048
  2 : 6513
  3 : 9432
  4 : 63922

  Statistics by resolution bin:
 d_max  d_min   #obs  #uniq   mult.  %comp       <I>  <I/sI>    r_mrg   r_meas    r_pim   cc1/2   cc_ano
 29.74   3.45  21475   5646    3.80 100.00      24.1     9.5    0.039    0.045    0.023   0.872   0.081
  3.45   2.74  20971   5525    3.80 100.00      24.3     9.6    0.027    0.032    0.016   0.895   0.113
  2.74   2.39  20807   5531    3.76  99.95      24.2     9.5    0.020    0.023    0.012   0.884   0.129
  2.39   2.17  20491   5512    3.72  99.84      24.3     9.4    0.025    0.029    0.015   0.794  -0.100
  2.17   2.02  20195   5463    3.70  99.67      24.3     9.4    0.026    0.031    0.016   0.750  -0.212
  2.02   1.90  20083   5470    3.67  99.55      24.3     9.4    0.023    0.027    0.014   0.755  -0.209
  1.90   1.80  19905   5446    3.65  99.43      24.2     9.3    0.019    0.022    0.011   0.708  -0.131
  1.80   1.73  19749   5432    3.64  99.49      24.2     9.3    0.016    0.019    0.010   0.605  -0.089
  1.73   1.66  19704   5456    3.61  99.07      24.2     9.3    0.016    0.018    0.009   0.564  -0.088
  1.66   1.60  19557   5425    3.60  99.20      24.2     9.3    0.015    0.018    0.009   0.485  -0.061
  1.60   1.55  19404   5408    3.59  98.79      24.3     9.3    0.016    0.019    0.010   0.395  -0.066
  1.55   1.51  19315   5410    3.57  98.94      24.3     9.2    0.017    0.020    0.010   0.397  -0.061
  1.51   1.47  19173   5386    3.56  98.83      24.3     9.2    0.017    0.020    0.010   0.408  -0.108
  1.47   1.43  19056   5384    3.54  98.32      24.3     9.2    0.017    0.020    0.010   0.275  -0.112
  1.43   1.40  19173   5421    3.54  98.40      24.3     9.2    0.016    0.019    0.010   0.234  -0.138
 29.73   1.40 299058  81915    3.65  99.30      24.2     9.3    0.021    0.024    0.012   0.815   0.008

References:
  Diederichs K & Karplus PA (1997) Nature Structural Biology 4:269-275
    (with erratum in: Nat Struct Biol 1997 Jul;4(7):592)
  Weiss MS (2001) J Appl Cryst 34:130-135.
  Karplus PA & Diederichs K (2012) Science 336:1030-3.

