Format: scalepack_merge
Miller array info: /reg/data/ana03/scratch/zhensu/Experiment/ICH/20201225/data/G150T-3/datadir/phenix_merge_stats_2021_01_06_14_19_09_011178/exp_nosym_aniso.hkl:I,SIGI
Observation type: xray.intensity
Type of data: double, size=302769
Type of sigmas: double, size=302769
Number of Miller indices: 302769
Anomalous flag: False
Unit cell: (56.295, 59.716, 69.505, 90, 110.88, 90)
Space group: I 1 2 1 (No. 5)

                     ----------Merging statistics----------                    

Resolution: 26.30 - 1.40
Observations: 151402
Unique reflections: 41960
Redundancy: 3.6
Completeness: 98.97%
Mean intensity: 10.4
Mean I/sigma(I): 6.1
R-merge: 0.031
R-meas:  0.037
R-pim:   0.019

Redundancies (non-anomalous):
  1 : 1161
  2 : 3792
  3 : 5371
  4 : 31636

  Statistics by resolution bin:
 d_max  d_min   #obs  #uniq   mult.  %comp       <I>  <I/sI>    r_mrg   r_meas    r_pim   cc1/2   cc_ano
 26.30   3.45  10964   2909    3.77 100.00      10.6     6.3    0.059    0.068    0.035   0.883   0.348
  3.45   2.74  10633   2838    3.75  99.93      10.6     6.2    0.049    0.057    0.029   0.889   0.271
  2.74   2.39  10492   2831    3.71  99.82      10.5     6.2    0.032    0.037    0.019   0.920   0.112
  2.39   2.17  10422   2827    3.69  99.65      10.5     6.2    0.031    0.037    0.019   0.917   0.016
  2.17   2.02  10228   2804    3.65  99.33      10.5     6.1    0.038    0.045    0.023   0.828  -0.159
  2.02   1.90  10219   2817    3.63  99.26      10.4     6.1    0.035    0.040    0.021   0.808  -0.149
  1.90   1.80   9994   2771    3.61  99.07      10.3     6.1    0.028    0.033    0.017   0.799  -0.091
  1.80   1.73   9998   2785    3.59  99.04      10.3     6.0    0.024    0.028    0.015   0.742   0.007
  1.73   1.66   9967   2791    3.57  98.94      10.3     6.0    0.024    0.028    0.014   0.660   0.145
  1.66   1.60   9943   2789    3.57  98.48      10.3     6.0    0.023    0.027    0.014   0.658   0.138
  1.60   1.55   9760   2761    3.53  98.64      10.3     6.0    0.022    0.026    0.014   0.649   0.097
  1.55   1.51   9745   2758    3.53  98.39      10.3     6.0    0.023    0.027    0.014   0.578   0.041
  1.51   1.47   9765   2775    3.52  98.09      10.3     6.0    0.025    0.029    0.015   0.481   0.064
  1.47   1.43   9658   2756    3.50  97.97      10.3     6.0    0.024    0.028    0.015   0.484   0.127
  1.43   1.40   9614   2748    3.50  97.93      10.3     6.0    0.026    0.030    0.016   0.351   0.122
 26.30   1.40 151402  41960    3.61  98.97      10.4     6.1    0.031    0.037    0.019   0.857   0.150

References:
  Diederichs K & Karplus PA (1997) Nature Structural Biology 4:269-275
    (with erratum in: Nat Struct Biol 1997 Jul;4(7):592)
  Weiss MS (2001) J Appl Cryst 34:130-135.
  Karplus PA & Diederichs K (2012) Science 336:1030-3.

