Format: scalepack_merge
Miller array info: /reg/data/ana03/scratch/zhensu/Experiment/ICH/20201225/data/WT-3/datadir/phenix_merge_stats_2021_01_06_14_12_58_099859/exp_nosym_aniso.hkl:I,SIGI
Observation type: xray.intensity
Type of data: double, size=299079
Type of sigmas: double, size=299079
Number of Miller indices: 299079
Anomalous flag: False
Unit cell: (57.31, 58.215, 69.03, 90, 112.81, 90)
Space group: P 1 21 1 (No. 4)

                     ----------Merging statistics----------                    

Resolution: 29.73 - 1.40
Observations: 299039
Unique reflections: 81915
Redundancy: 3.7
Completeness: 99.30%
Mean intensity: 12.8
Mean I/sigma(I): 6.8
R-merge: 0.031
R-meas:  0.036
R-pim:   0.018

Redundancies (non-anomalous):
  1 : 2048
  2 : 6514
  3 : 9449
  4 : 63904

  Statistics by resolution bin:
 d_max  d_min   #obs  #uniq   mult.  %comp       <I>  <I/sI>    r_mrg   r_meas    r_pim   cc1/2   cc_ano
 29.74   3.45  21474   5646    3.80 100.00      12.7     6.9    0.060    0.070    0.036   0.773   0.324
  3.45   2.74  20971   5525    3.80 100.00      12.8     6.9    0.043    0.050    0.026   0.854   0.203
  2.74   2.39  20807   5531    3.76  99.95      12.7     6.9    0.031    0.037    0.019   0.857   0.240
  2.39   2.17  20491   5512    3.72  99.84      12.7     6.8    0.036    0.042    0.022   0.801   0.008
  2.17   2.02  20195   5463    3.70  99.67      12.8     6.8    0.039    0.045    0.023   0.724  -0.152
  2.02   1.90  20083   5470    3.67  99.55      12.7     6.8    0.035    0.040    0.021   0.699  -0.235
  1.90   1.80  19905   5446    3.65  99.43      12.7     6.8    0.028    0.032    0.016   0.698  -0.171
  1.80   1.73  19749   5432    3.64  99.49      12.7     6.8    0.024    0.028    0.014   0.631  -0.133
  1.73   1.66  19704   5456    3.61  99.07      12.7     6.7    0.023    0.026    0.013   0.626  -0.141
  1.66   1.60  19557   5425    3.60  99.20      12.8     6.7    0.021    0.024    0.013   0.581  -0.136
  1.60   1.55  19404   5408    3.59  98.79      12.8     6.7    0.022    0.025    0.013   0.508  -0.097
  1.55   1.51  19315   5410    3.57  98.94      12.8     6.7    0.023    0.027    0.014   0.455  -0.051
  1.51   1.47  19173   5386    3.56  98.83      12.8     6.7    0.023    0.027    0.014   0.458  -0.117
  1.47   1.43  19056   5384    3.54  98.32      12.8     6.7    0.022    0.026    0.014   0.307  -0.126
  1.43   1.40  19155   5421    3.53  98.40      12.8     6.7    0.023    0.027    0.014   0.283  -0.101
 29.73   1.40 299039  81915    3.65  99.30      12.8     6.8    0.031    0.036    0.018   0.766   0.111

References:
  Diederichs K & Karplus PA (1997) Nature Structural Biology 4:269-275
    (with erratum in: Nat Struct Biol 1997 Jul;4(7):592)
  Weiss MS (2001) J Appl Cryst 34:130-135.
  Karplus PA & Diederichs K (2012) Science 336:1030-3.

