Format: scalepack_merge
Miller array info: /reg/data/ana03/scratch/zhensu/Experiment/ICH/20201225/data/G150A-3/datadir/phenix_merge_stats_2021_01_06_14_16_36_193673/exp_nosym_aniso.hkl:I,SIGI
Observation type: xray.intensity
Type of data: double, size=296445
Type of sigmas: double, size=296445
Number of Miller indices: 296445
Anomalous flag: False
Unit cell: (57.318, 58.245, 69.095, 90, 112.74, 90)
Space group: P 1 21 1 (No. 4)

                     ----------Merging statistics----------                    

Resolution: 29.77 - 1.40
Observations: 296418
Unique reflections: 82661
Redundancy: 3.6
Completeness: 100.00%
Mean intensity: 9.9
Mean I/sigma(I): 5.9
R-merge: 0.036
R-meas:  0.042
R-pim:   0.022

Redundancies (non-anomalous):
  1 : 3053
  2 : 10901
  3 : 3265
  4 : 65442

  Statistics by resolution bin:
 d_max  d_min   #obs  #uniq   mult.  %comp       <I>  <I/sI>    r_mrg   r_meas    r_pim   cc1/2   cc_ano
 29.78   3.45  21494   5658    3.80 100.00       9.8     6.1    0.058    0.067    0.034   0.777  -0.364
  3.45   2.74  20869   5538    3.77 100.00       9.9     6.1    0.042    0.049    0.025   0.819  -0.231
  2.74   2.39  20624   5545    3.72 100.00       9.9     6.0    0.039    0.046    0.023   0.701  -0.550
  2.39   2.17  20352   5526    3.68 100.00       9.9     6.0    0.042    0.049    0.025   0.593  -0.537
  2.17   2.02  20045   5500    3.64 100.00       9.9     6.0    0.039    0.045    0.023   0.596  -0.272
  2.02   1.90  19877   5500    3.61 100.00       9.9     5.9    0.036    0.042    0.021   0.559  -0.482
  1.90   1.80  19738   5498    3.59 100.00       9.9     5.9    0.033    0.039    0.020   0.377  -0.470
  1.80   1.73  19538   5477    3.57 100.00       9.9     5.9    0.032    0.037    0.019   0.157  -0.469
  1.73   1.66  19577   5522    3.55 100.00       9.9     5.9    0.031    0.036    0.019   0.072  -0.455
  1.66   1.60  19228   5465    3.52 100.00       9.9     5.8    0.031    0.036    0.019   0.019  -0.500
  1.60   1.55  19278   5503    3.50 100.00       9.9     5.8    0.031    0.036    0.019  -0.022  -0.464
  1.55   1.51  19034   5464    3.48 100.00       9.9     5.8    0.031    0.036    0.019  -0.042  -0.472
  1.51   1.47  18996   5482    3.47 100.00       9.9     5.8    0.031    0.036    0.019  -0.041  -0.494
  1.47   1.43  18793   5464    3.44 100.00       9.9     5.8    0.029    0.035    0.018  -0.124  -0.487
  1.43   1.40  18975   5519    3.44 100.00       9.9     5.8    0.029    0.034    0.018  -0.207  -0.524
 29.77   1.40 296418  82661    3.59 100.00       9.9     5.9    0.036    0.042    0.022   0.622  -0.397

References:
  Diederichs K & Karplus PA (1997) Nature Structural Biology 4:269-275
    (with erratum in: Nat Struct Biol 1997 Jul;4(7):592)
  Weiss MS (2001) J Appl Cryst 34:130-135.
  Karplus PA & Diederichs K (2012) Science 336:1030-3.

