Format: scalepack_merge
Miller array info: /reg/data/ana03/scratch/zhensu/Experiment/ICH/20201225/data/WT-1/datadir/phenix_merge_stats_2021_01_06_14_11_29_704324/exp_nosym_aniso.hkl:I,SIGI
Observation type: xray.intensity
Type of data: double, size=302691
Type of sigmas: double, size=302691
Number of Miller indices: 302691
Anomalous flag: False
Unit cell: (57.305, 58.188, 69.015, 90, 112.81, 90)
Space group: P 1 21 1 (No. 4)

                     ----------Merging statistics----------                    

Resolution: 29.73 - 1.40
Observations: 302651
Unique reflections: 81070
Redundancy: 3.7
Completeness: 98.36%
Mean intensity: 16.3
Mean I/sigma(I): 7.8
R-merge: 0.028
R-meas:  0.032
R-pim:   0.016

Redundancies (non-anomalous):
  1 : 1873
  2 : 4832
  3 : 6346
  4 : 68019

  Statistics by resolution bin:
 d_max  d_min   #obs  #uniq   mult.  %comp       <I>  <I/sI>    r_mrg   r_meas    r_pim   cc1/2   cc_ano
 29.73   3.45  21414   5627    3.81  99.82      16.2     7.8    0.042    0.049    0.025   0.867   0.467
  3.45   2.74  21188   5513    3.84  99.66      16.4     7.9    0.042    0.049    0.025   0.871   0.218
  2.74   2.39  21043   5492    3.83  99.40      16.3     7.9    0.030    0.035    0.018   0.888  -0.039
  2.39   2.17  20782   5468    3.80  99.08      16.3     7.8    0.029    0.034    0.017   0.869   0.138
  2.17   2.02  20442   5410    3.78  98.92      16.4     7.8    0.032    0.037    0.019   0.793   0.154
  2.02   1.90  20340   5419    3.75  98.71      16.3     7.8    0.029    0.033    0.017   0.786  -0.104
  1.90   1.80  20169   5393    3.74  98.43      16.3     7.8    0.025    0.029    0.015   0.735  -0.213
  1.80   1.73  20030   5372    3.73  98.37      16.3     7.8    0.023    0.026    0.013   0.634  -0.254
  1.73   1.66  19943   5390    3.70  98.05      16.3     7.7    0.023    0.026    0.013   0.564  -0.253
  1.66   1.60  19827   5349    3.71  97.91      16.3     7.7    0.023    0.026    0.013   0.515  -0.217
  1.60   1.55  19701   5351    3.68  97.79      16.4     7.7    0.022    0.025    0.013   0.508  -0.232
  1.55   1.51  19563   5327    3.67  97.64      16.4     7.7    0.022    0.026    0.013   0.461  -0.246
  1.51   1.47  19455   5309    3.66  97.32      16.4     7.7    0.024    0.028    0.014   0.352  -0.213
  1.47   1.43  19277   5299    3.64  97.07      16.4     7.7    0.023    0.027    0.014   0.329  -0.239
  1.43   1.40  19477   5351    3.64  97.13      16.4     7.7    0.023    0.027    0.014   0.286  -0.204
 29.73   1.40 302651  81070    3.73  98.36      16.3     7.8    0.028    0.032    0.016   0.814   0.123

References:
  Diederichs K & Karplus PA (1997) Nature Structural Biology 4:269-275
    (with erratum in: Nat Struct Biol 1997 Jul;4(7):592)
  Weiss MS (2001) J Appl Cryst 34:130-135.
  Karplus PA & Diederichs K (2012) Science 336:1030-3.

