Format: scalepack_merge
Miller array info: /reg/data/ana03/scratch/zhensu/Experiment/ICH/20201225/data/G150T-1/datadir/phenix_merge_stats_2021_01_06_14_17_07_680147/exp_nosym_aniso.hkl:I,SIGI
Observation type: xray.intensity
Type of data: double, size=311975
Type of sigmas: double, size=311975
Number of Miller indices: 311975
Anomalous flag: False
Unit cell: (56.295, 59.716, 69.505, 90, 110.88, 90)
Space group: I 1 2 1 (No. 5)

                     ----------Merging statistics----------                    

Resolution: 26.30 - 1.40
Observations: 156000
Unique reflections: 42326
Redundancy: 3.7
Completeness: 99.84%
Mean intensity: 7.4
Mean I/sigma(I): 5.2
R-merge: 0.029
R-meas:  0.034
R-pim:   0.018

Redundancies (non-anomalous):
  1 : 1355
  2 : 4007
  3 : 1225
  4 : 35739

  Statistics by resolution bin:
 d_max  d_min   #obs  #uniq   mult.  %comp       <I>  <I/sI>    r_mrg   r_meas    r_pim   cc1/2   cc_ano
 26.30   3.45  11086   2909    3.81 100.00       7.5     5.3    0.036    0.042    0.022   0.874  -0.277
  3.45   2.74  10913   2840    3.84 100.00       7.5     5.3    0.035    0.040    0.021   0.894  -0.257
  2.74   2.39  10831   2836    3.82 100.00       7.4     5.3    0.028    0.033    0.017   0.906  -0.300
  2.39   2.17  10736   2837    3.78 100.00       7.4     5.3    0.030    0.035    0.018   0.904  -0.342
  2.17   2.02  10591   2823    3.75 100.00       7.4     5.2    0.038    0.044    0.022   0.811  -0.323
  2.02   1.90  10539   2838    3.71 100.00       7.4     5.2    0.033    0.039    0.020   0.800  -0.370
  1.90   1.80  10332   2797    3.69 100.00       7.4     5.2    0.028    0.033    0.017   0.806  -0.341
  1.80   1.73  10310   2810    3.67  99.93       7.3     5.1    0.025    0.030    0.015   0.784  -0.296
  1.73   1.66  10296   2818    3.65  99.89       7.3     5.1    0.024    0.028    0.014   0.779  -0.270
  1.66   1.60  10223   2827    3.62  99.82       7.3     5.1    0.024    0.028    0.015   0.758  -0.320
  1.60   1.55  10125   2792    3.63  99.75       7.3     5.1    0.025    0.029    0.015   0.771  -0.302
  1.55   1.51  10035   2793    3.59  99.64       7.3     5.1    0.026    0.030    0.016   0.765  -0.287
  1.51   1.47  10080   2817    3.58  99.58       7.3     5.1    0.029    0.034    0.018   0.728  -0.245
  1.47   1.43   9999   2799    3.57  99.50       7.3     5.1    0.028    0.033    0.017   0.746  -0.318
  1.43   1.40   9904   2790    3.55  99.43       7.3     5.0    0.030    0.036    0.019   0.687  -0.244
 26.30   1.40 156000  42326    3.69  99.84       7.4     5.2    0.029    0.034    0.018   0.840  -0.292

References:
  Diederichs K & Karplus PA (1997) Nature Structural Biology 4:269-275
    (with erratum in: Nat Struct Biol 1997 Jul;4(7):592)
  Weiss MS (2001) J Appl Cryst 34:130-135.
  Karplus PA & Diederichs K (2012) Science 336:1030-3.

