Format: scalepack_merge
Miller array info: /reg/data/ana03/scratch/zhensu/Experiment/ICH/20201225/data/WT-1/datadir/phenix_merge_stats_2021_01_06_14_10_54_930212/exp_nosym_aniso.hkl:I,SIGI
Observation type: xray.intensity
Type of data: double, size=302628
Type of sigmas: double, size=302628
Number of Miller indices: 302628
Anomalous flag: False
Unit cell: (57.305, 58.188, 69.015, 90, 112.81, 90)
Space group: P 1 21 1 (No. 4)

                     ----------Merging statistics----------                    

Resolution: 29.73 - 1.40
Observations: 302588
Unique reflections: 81069
Redundancy: 3.7
Completeness: 98.36%
Mean intensity: 13.4
Mean I/sigma(I): 7.0
R-merge: 0.027
R-meas:  0.032
R-pim:   0.016

Redundancies (non-anomalous):
  1 : 1877
  2 : 4832
  3 : 6393
  4 : 67967

  Statistics by resolution bin:
 d_max  d_min   #obs  #uniq   mult.  %comp       <I>  <I/sI>    r_mrg   r_meas    r_pim   cc1/2   cc_ano
 29.73   3.45  21411   5627    3.81  99.82      13.3     7.0    0.044    0.051    0.026   0.879   0.500
  3.45   2.74  21187   5513    3.84  99.66      13.5     7.1    0.046    0.053    0.027   0.892   0.254
  2.74   2.39  21041   5492    3.83  99.40      13.4     7.1    0.032    0.037    0.019   0.907   0.123
  2.39   2.17  20779   5468    3.80  99.08      13.5     7.1    0.031    0.035    0.018   0.904   0.239
  2.17   2.02  20442   5410    3.78  98.92      13.5     7.1    0.035    0.041    0.021   0.812   0.208
  2.02   1.90  20338   5419    3.75  98.71      13.4     7.1    0.034    0.039    0.020   0.786  -0.041
  1.90   1.80  20163   5393    3.74  98.43      13.4     7.0    0.026    0.031    0.015   0.763  -0.074
  1.80   1.73  20030   5372    3.73  98.37      13.4     7.0    0.021    0.024    0.012   0.752  -0.013
  1.73   1.66  19944   5390    3.70  98.05      13.4     7.0    0.019    0.022    0.011   0.738   0.002
  1.66   1.60  19827   5349    3.71  97.91      13.4     7.0    0.018    0.021    0.011   0.718   0.044
  1.60   1.55  19700   5350    3.68  97.77      13.5     7.0    0.018    0.021    0.011   0.710   0.036
  1.55   1.51  19559   5327    3.67  97.64      13.5     7.0    0.018    0.021    0.011   0.688   0.004
  1.51   1.47  19455   5309    3.66  97.32      13.5     7.0    0.021    0.024    0.012   0.548   0.021
  1.47   1.43  19276   5299    3.64  97.07      13.5     6.9    0.020    0.024    0.012   0.539   0.014
  1.43   1.40  19436   5351    3.63  97.13      13.5     6.9    0.022    0.026    0.013   0.438   0.064
 29.73   1.40 302588  81069    3.73  98.36      13.4     7.0    0.027    0.032    0.016   0.852   0.262

References:
  Diederichs K & Karplus PA (1997) Nature Structural Biology 4:269-275
    (with erratum in: Nat Struct Biol 1997 Jul;4(7):592)
  Weiss MS (2001) J Appl Cryst 34:130-135.
  Karplus PA & Diederichs K (2012) Science 336:1030-3.

